Time (s),Linear Acceleration x (m/s^2),Linear Acceleration y (m/s^2),Linear Acceleration z (m/s^2),Absolute acceleration (m/s^2)
0.01347861,0,0,0,0
0.01847861,0.0554075241088867,-0.00555980205535889,-0.00480747222900391,0.0558929057752796
0.02347861,0.0958051681518555,0.003684401512146,-0.000233173370361328,0.0958762714592545
0.02847861,0.145581245422363,0.0155413150787354,0.04459547996521,0.153049627005198
0.03347861,0.156176567077637,0.0329824686050415,0.0619308948516846,0.17121448267179
0.03847861,0.130527496337891,0.0753895044326782,0.127521276473999,0.197440321698484
0.04347861,0.0822734832763672,0.077252984046936,0.187600374221802,0.218931153568292
0.04847861,0.0231332778930664,0.0940181016921997,0.24777364730835,0.266019420893222
0.05347861,-0.0457897186279297,0.0877362489700317,0.304290533065796,0.31997980597035
0.05847861,-0.103489875793457,0.108970046043396,0.337642908096314,0.369577270288881
0.06347861,-0.122904777526855,0.149198412895203,0.311198949813843,0.366347563271017
0.06847861,-0.102693557739258,0.18100905418396,0.273779392242432,0.343897368577245
0.07347861,-0.0782947540283203,0.188300251960754,0.240514039993286,0.315331661636967
0.07847861,-0.0347223281860352,0.177154421806335,0.237716913223267,0.298493986660693
0.08347861,0.0207977294921875,0.138959288597107,0.243391990661621,0.281037169352509
0.08847861,0.0864648818969727,0.115341424942017,0.276680469512939,0.311980612088336
0.09347861,0.151622772216797,0.0735782384872437,0.288528919219971,0.334143920279626
0.09847861,0.17487621307373,0.0524770021438599,0.315079689025879,0.36415757041377
0.10347861,0.197725296020508,0.0357977151870728,0.329466342926025,0.385907813110931
0.10847861,0.207176208496094,0.0438613891601563,0.345663070678711,0.405374840434025
0.11347861,0.19135856628418,0.0512882471084595,0.328963994979858,0.384012884126176
0.11847861,0.164084434509277,0.0525822639465332,0.290633916854858,0.337870788551436
0.12347861,0.141975402832031,0.0545581579208374,0.237013578414917,0.281618614367155
0.12847861,0.101923942565918,0.0498363971710205,0.164750337600708,0.200037072290902
0.13347861,0.0485115051269531,0.052072286605835,0.0871241092681885,0.112496664740862
0.13847861,-0.00140190124511719,0.0509680509567261,0.0263638496398926,0.0574000009866146
0.14347861,-0.0413274765014648,0.0441255569458008,0.00885248184204102,0.0611014854526459
0.14847861,-0.0740995407104492,0.0279989242553711,-0.0182914733886719,0.0812973535343311
0.15347861,-0.176723480224609,0.029765248298645,-0.00746655464172363,0.179368079398748
0.15847861,-0.246307373046875,0.0624672174453735,0.00461578369140625,0.254147163532678
0.16347861,-0.3116455078125,0.118633508682251,0.0397701263427734,0.335825095654409
0.16847861,-0.334970474243164,0.135830998420715,0.0302121639251709,0.362723108714761
0.17347861,-0.292461395263672,0.159151077270508,0.0332133769989014,0.334613002627824
0.17847861,-0.277863502502441,0.156235456466675,-0.00450825691223145,0.318807101960827
0.18347861,-0.253824234008789,0.150558829307556,-0.0452234745025635,0.298563000887073
0.18847861,-0.23033332824707,0.159539341926575,-0.0881133079528809,0.29371788975501
0.19347861,-0.224757194519043,0.167872309684753,-0.138118267059326,0.312687646929705
0.19847861,-0.20878791809082,0.163281083106995,-0.222110509872437,0.345812355818999
0.20347861,-0.164319038391113,0.159191966056824,-0.274873495101929,0.357628671591593
0.20847861,-0.14936351776123,0.145498037338257,-0.34877872467041,0.40635666364662
0.21347861,-0.136319160461426,0.113718748092651,-0.377078533172607,0.416777023546492
0.21847861,-0.14012336730957,0.0851644277572632,-0.392244577407837,0.425139208174508
0.22347861,-0.180377006530762,0.0417764186859131,-0.388195991516113,0.430089829538432
0.22847861,-0.229925155639648,0.0144741535186768,-0.356885671615601,0.424785193857457
0.23347861,-0.282871246337891,-0.0116521120071411,-0.317629098892212,0.425488141059251
0.23847861,-0.287997245788574,-0.047558069229126,-0.285651206970215,0.408412531117922
0.24347861,-0.286614418029785,-0.0743905305862427,-0.242451429367065,0.382706769296792
0.24847861,-0.270686149597168,-0.101391673088074,-0.197416067123413,0.35003480757464
0.25347861,-0.254367828369141,-0.117220759391785,-0.15029239654541,0.317854531194668
0.25847861,-0.231203079223633,-0.128118634223938,-0.0921556949615479,0.279931992440561
0.26347861,-0.187337875366211,-0.13060200214386,-0.0501556396484375,0.23381178477411
0.26847861,-0.126184463500977,-0.129481196403503,-0.0535120964050293,0.188550904301128
0.27347861,-0.0796146392822266,-0.118107080459595,-0.0502302646636963,0.151032621413101
0.27847861,-0.0170001983642578,-0.110911250114441,-0.070288896560669,0.132404082739501
0.28347861,0.0596504211425781,-0.0934642553329468,-0.096210241317749,0.146799694488268
0.28847861,0.130973815917969,-0.0889096260070801,-0.142709016799927,0.213131240152247
0.29347861,0.216768264770508,-0.0760000944137573,-0.172001123428345,0.286964948074028
0.29847861,0.285365104675293,-0.0821354389190674,-0.203468084335327,0.359970463560355
0.30347861,0.35578441619873,-0.0947562456130981,-0.188547372817993,0.413656147892339
0.30847861,0.407343864440918,-0.120479822158813,-0.189939260482788,0.465318529738317
0.31347861,0.397666931152344,-0.146933317184448,-0.185112237930298,0.462595858674191
0.31847861,0.374244689941406,-0.133067011833191,-0.156904220581055,0.427065395488445
0.32347861,0.243535995483398,-0.127588272094727,-0.103092432022095,0.293626629944285
0.32847861,0.0890617370605469,-0.103677988052368,-0.0708227157592773,0.153938219043707
0.33347861,-0.0817928314208984,-0.0791510343551636,-0.088179349899292,0.143981079520892
0.33847861,-0.233199119567871,-0.0687296390533447,-0.0946879386901856,0.260904960445427
0.34347861,-0.371230125427246,-0.0679752826690674,-0.0698657035827637,0.383814618814582
0.34847861,-0.45333194732666,-0.0170563459396362,-0.0396320819854736,0.455380582948261
0.35347861,-0.438937187194824,0.00257396697998047,-0.00252175331115723,0.438951977838443
0.35847861,-0.383228302001953,0.0357769727706909,0.0461916923522949,0.387656543448326
0.36347861,-0.330496788024902,0.0636501312255859,0.0607943534851074,0.342016694790596
0.36847861,-0.210056304931641,0.0663565397262573,0.0860004425048828,0.236480269191771
0.37347861,-0.0530900955200195,0.0630546808242798,0.0604903697967529,0.102242534467434
0.37847861,-0.0403575897216797,0.0639008283615112,0.0898220539093018,0.117388467414462
0.38347861,-0.0269222259521484,0.108129262924194,0.0190339088439941,0.113044387019567
0.38847861,-0.00531578063964844,0.12597393989563,-0.0163743495941162,0.127144840167688
0.39347861,-0.0324869155883789,0.17662501335144,0.0147366523742676,0.180191464695315
0.39847861,-0.0338249206542969,0.245269775390625,0.0686130523681641,0.256922437581293
0.40347861,-0.0297327041625977,0.318909168243408,0.0923840999603272,0.333349536090877
0.40847861,-0.0323123931884766,0.389391660690308,0.0985219478607178,0.402959713096722
0.41347861,-0.0729837417602539,0.433719873428345,0.0874276161193848,0.448422951272953
0.41847861,-0.136773109436035,0.432595133781433,0.102664232254028,0.465172417304043
0.42347861,-0.196989059448242,0.423763275146484,0.160911917686462,0.494239464388178
0.42847861,-0.255549430847168,0.411368846893311,0.242908239364624,0.541788014404033
0.43347861,-0.259078979492188,0.363171339035034,0.307613372802734,0.541886820506171
0.43847861,-0.232865333557129,0.278986215591431,0.313998222351074,0.480264984880572
0.44347861,-0.124414443969727,0.184212684631348,0.283115267753601,0.359954888677148
0.44847861,0.00677967071533203,0.0937347412109375,0.262026429176331,0.278370284390752
0.45347861,0.105758666992188,0.0404075384140015,0.283978581428528,0.305714735521208
0.45847861,0.203618049621582,-0.0194981098175049,0.296645760536194,0.36033206027531
0.46347861,0.280966758728027,-0.0760437250137329,0.247122406959534,0.381830396440057
0.46847861,0.345429420471191,-0.109111547470093,0.150238871574402,0.392171560481291
0.47347861,0.371309280395508,-0.127578377723694,0.0627316236495972,0.397595373182528
0.47847861,0.423954010009766,-0.0970221757888794,-0.0317620038986206,0.436072390882322
0.48347861,0.453080177307129,-0.0903586149215698,-0.119972705841064,0.477325650375119
0.48847861,0.387638092041016,-0.085773229598999,-0.137614607810974,0.420188193075448
0.49347861,0.29682731628418,-0.0740492343902588,-0.101799845695496,0.322417359008287
0.49847861,0.206070899963379,-0.102274417877197,-0.106005668640137,0.253303126999409
0.50347861,0.190632820129395,-0.156098008155823,-0.121077179908752,0.274530770143089
0.50847861,0.0776948928833008,-0.22610330581665,-0.143401682376862,0.278788887493529
0.51347861,0.00565814971923828,-0.297823309898376,-0.16633129119873,0.341169806707608
0.51847861,-0.0704135894775391,-0.343266844749451,-0.197874486446381,0.402423300361415
0.52347861,-0.11008358001709,-0.353791117668152,-0.217752933502197,0.429770740720063
0.52847861,-0.212454795837402,-0.357694149017334,-0.253318965435028,0.487085867958228
0.53347861,-0.231205940246582,-0.363034129142761,-0.358521163463593,0.560167287851618
0.53847861,-0.344679832458496,-0.357832193374634,-0.47924479842186,0.690306918937748
0.54347861,-0.334259986877441,-0.350669145584106,-0.505717217922211,0.700320278868873
0.54847861,-0.281288146972656,-0.339998602867126,-0.559328436851502,0.712439732082408
0.55347861,-0.219609260559082,-0.306094646453857,-0.591062724590302,0.700911766423656
0.55847861,-0.210655212402344,-0.243662357330322,-0.527564167976379,0.61811885121282
0.56347861,-0.148636817932129,-0.116822004318237,-0.323978871107101,0.375103443414948
0.56847861,-0.132014274597168,-0.0166335105895996,-0.261943727731705,0.293800883031233
0.57347861,-0.314041137695313,0.182124257087708,-0.0436707735061646,0.365647668724063
0.57847861,-0.511044502258301,0.305241823196411,0.0440055429935455,0.596888215439759
0.58347861,-0.439447402954102,0.334152817726135,-0.0566304624080658,0.554958678488743
0.58847861,-0.309039115905762,0.362067699432373,-0.243999868631363,0.534915068047432
0.59347861,-0.18891429901123,0.363188147544861,-0.418833464384079,0.585675433816326
0.59847861,-0.121158599853516,0.347677826881409,-0.524356067180634,0.640709421510707
0.60347861,0.0282278060913086,0.284672498703003,-0.573880553245544,0.64122860973911
0.60847861,0.204569816589355,0.203261256217957,-0.536507666110992,0.609101324850446
0.61347861,0.296651840209961,0.107172727584839,-0.377828061580658,0.492181218613356
0.61847861,0.214920043945313,0.0519344806671143,-0.210864275693893,0.305534872535899
0.62347861,0.0364036560058594,0.0308161973953247,0.0173505619168282,0.0507533860085241
0.62847861,-0.33910083770752,0.0637415647506714,0.31828385591507,0.469421961722042
0.63347861,-0.802689552307129,0.126734972000122,0.48574361205101,0.946741320086566
0.63847861,-1.30972099304199,0.219340085983276,0.921152830123901,1.61616883071643
0.64347861,-1.53371715545654,0.29215145111084,0.868828773498535,1.78675801970688
0.64847861,-1.55283069610596,0.332659840583801,0.6468146443367,1.71473465131914
0.65347861,-1.44490718841553,0.340651869773865,0.485066950321198,1.5617587604394
0.65847861,-1.22899627685547,0.310734868049622,0.374965667724609,1.32196341050673
0.66347861,-0.901998519897461,0.241897344589233,0.296254336833954,0.979735825265902
0.66847861,-0.471344947814941,0.134340167045593,0.211937054991722,0.533976268752715
0.67347861,0.0199909210205078,0.00856459140777588,0.143084287643433,0.144727684012627
0.67847861,0.498902320861816,-0.101756930351257,0.044235110282898,0.511091717422184
0.68347861,0.889840126037598,-0.202838897705078,-0.048419751226902,0.91394941908056
0.68847861,1.15438079833984,-0.281195163726807,-0.13955394923687,1.19630307716176
0.69347861,1.2909460067749,-0.334542274475098,-0.177234575152397,1.34531491497288
0.69847861,1.36376094818115,-0.365748405456543,-0.214649319648743,1.42817721249978
0.70347861,1.39132690429688,-0.383556246757507,-0.245458409190178,1.4639521097663
0.70847861,1.34303951263428,-0.405467391014099,-0.312394469976425,1.43727145750013
0.71347861,1.21046257019043,-0.390758872032166,-0.377971231937408,1.32694174027203
0.71847861,0.947616577148438,-0.362615823745728,-0.430426359176636,1.10214983717794
0.72347861,0.65931510925293,-0.340002536773682,-0.516088843345642,0.903684586859588
0.72847861,0.384722709655762,-0.30670702457428,-0.580612659454346,0.761046531144271
0.73347861,0.180450439453125,-0.269994258880615,-0.55905419588089,0.646529856123711
0.73847861,0.00195026397705078,-0.23028826713562,-0.46496108174324,0.518869248506549
0.74347861,-0.146059036254883,-0.192947030067444,-0.331262677907944,0.410239881360034
0.74847861,-0.266864776611328,-0.169592261314392,-0.219810888171196,0.38509111993417
0.75347861,-0.385781288146973,-0.162905335426331,-0.185680508613586,0.458085801868714
0.75847861,-0.501884460449219,-0.164610385894775,-0.199063912034035,0.564456403860497
0.76347861,-0.540334701538086,-0.15271532535553,-0.213768124580383,0.600816420690474
0.76847861,-0.501091957092285,-0.180591940879822,-0.217960804700851,0.575511521135034
0.77347861,-0.428656578063965,-0.187859892845154,-0.17229700088501,0.498722425574858
0.77847861,-0.373927116394043,-0.20350193977356,-0.130975842475891,0.445409024581491
0.78347861,-0.35145378112793,-0.21653413772583,-0.0940568745136261,0.423383382660514
0.78847861,-0.311113357543945,-0.240216374397278,-0.093876451253891,0.404114112437148
0.79347861,-0.22529125213623,-0.250403761863709,-0.131719201803207,0.361674080310273
0.79847861,-0.136594772338867,-0.258700370788574,-0.199629753828049,0.354169524789895
0.80347861,-0.110746383666992,-0.26059365272522,-0.241043627262115,0.371854600051777
0.80847861,-0.11974048614502,-0.253953814506531,-0.298054993152618,0.40947173634803
0.81347861,-0.167980194091797,-0.241604685783386,-0.35584881901741,0.461755943974403
0.81847861,-0.0670080184936523,-0.225909352302551,-0.432209610939026,0.492270512816143
0.82347861,-0.177962303161621,-0.245859384536743,-0.539915800094605,0.619375887085679
0.82847861,-0.320186614990234,-0.227898001670837,-0.639577150344849,0.750676960368242
0.83347861,-0.448941230773926,-0.223183870315552,-0.666932046413422,0.834360607406073
0.83847861,-0.468711853027344,-0.212435603141785,-0.686284899711609,0.857791728931163
0.84347861,-0.480441093444824,-0.204213500022888,-0.709484100341797,0.880848730770423
0.84847861,-0.452090263366699,-0.208050847053528,-0.719281852245331,0.874664017872083
0.85347861,-0.416677474975586,-0.191603422164917,-0.708332180976868,0.843840309623085
0.85847861,-0.325594902038574,-0.191887855529785,-0.701762795448303,0.797059602795641
0.86347861,-0.213115692138672,-0.184138059616089,-0.671935260295868,0.72857540259317
0.86847861,-0.110386848449707,-0.203375577926636,-0.648736000061035,0.688770847076764
0.87347861,0.0115699768066406,-0.220552682876587,-0.593147397041321,0.63293063198447
0.87847861,0.134354591369629,-0.252981781959534,-0.515730023384094,0.589939314883556
0.88347861,0.275815010070801,-0.260944247245789,-0.466223746538162,0.601273982296846
0.88847861,0.412732124328613,-0.275972008705139,-0.412025809288025,0.645192702656355
0.89347861,0.52573299407959,-0.282439827919006,-0.336966156959534,0.685356570257326
0.89847861,0.617013931274414,-0.300719857215881,-0.287371873855591,0.744124463913075
0.90347861,0.676473617553711,-0.289878010749817,-0.271563112735748,0.784469464390555
0.90847861,0.666601181030273,-0.288522958755493,-0.228188216686249,0.761362262339308
0.91347861,0.648641586303711,-0.307210564613342,-0.207679450511932,0.747157943581932
0.91847861,0.592472076416016,-0.289579272270203,-0.206315577030182,0.69097426405514
0.92347861,0.500994682312012,-0.26117467880249,-0.200821936130524,0.599614321529856
0.92847861,0.36314868927002,-0.247776508331299,-0.23445451259613,0.498235975292905
0.93347861,0.233767509460449,-0.226791858673096,-0.270673274993897,0.423492405404938
0.93847861,0.0674667358398438,-0.202746510505676,-0.311414182186127,0.377672743037892
0.94347861,-0.0720987319946289,-0.192193269729614,-0.343103647232056,0.399820700850434
0.94847861,-0.181697845458984,-0.177315235137939,-0.36090350151062,0.441255183605911
0.95347861,-0.25086784362793,-0.159150242805481,-0.400177240371704,0.498402747246726
0.95847861,-0.250927925109863,-0.138144731521606,-0.434600234031677,0.520505671311568
0.96347861,-0.233076095581055,-0.135096073150635,-0.481813430786133,0.552014127897044
0.96847861,-0.386468887329102,-0.131254553794861,-0.470933675765991,0.623188964709541
0.97347861,-0.522054672241211,-0.133158564567566,-0.4182368516922,0.682051573006012
0.97847861,-0.544289588928223,-0.13621985912323,-0.340452194213867,0.65628858224126
0.98347861,-0.500831604003906,-0.137340426445007,-0.307316601276398,0.603438631283496
0.98847861,-0.41500186920166,-0.14388632774353,-0.268696188926697,0.514905300706957
0.99347861,-0.356180191040039,-0.145169615745544,-0.208057045936584,0.4372942718455
0.99847861,-0.278641700744629,-0.148414850234985,-0.144013345241547,0.346998571714342
1.00347861,-0.207484245300293,-0.14152193069458,-0.0690960884094238,0.260485005996193
1.00847861,-0.177496910095215,-0.145215034484863,0.0177120566368103,0.230013643691183
1.01347861,-0.181021690368652,-0.141270518302917,0.095229983329773,0.248585923677283
1.01847861,-0.152620315551758,-0.135708212852478,0.164261698722839,0.262090796141422
1.02347861,-0.191776275634766,-0.148189306259155,0.222877502441406,0.32926067405694
1.02847861,-0.0524578094482422,-0.146378040313721,0.61664879322052,0.635951324110987
1.03347861,0.721898078918457,-0.343237042427063,3.31308102607727,3.40814530045206
1.03847861,1.22287654876709,-0.507422804832459,6.26086473464966,6.3993227908872
1.04347861,1.04202842712402,-0.567951321601868,7.65078735351563,7.7422825494397
1.04847861,-0.816858291625977,-0.60191422700882,7.56555318832398,7.63329242533212
1.05347861,-2.14233112335205,-0.130801439285278,6.52040910720825,6.86457766974533
1.05847861,-1.90454959869385,0.161736369132996,4.82686519622803,5.19154075872882
1.06347861,-1.21861743927002,0.261253952980042,3.15911793708801,3.3960724714988
1.06847861,-0.667830467224121,0.152652025222778,1.84683907032013,1.96980068164734
1.07347861,-0.23298454284668,0.0553758144378662,0.87814199924469,0.910209673024625
1.07847861,0.0231437683105469,-0.0238311290740967,0.289040833711624,0.290943568887971
1.08347861,0.274326324462891,-0.100309252738953,-0.0431527867913246,0.295260971830386
1.08847861,0.579619407653809,-0.164537072181702,-0.358185231685638,0.700947762710441
1.09347861,0.640303611755371,-0.198801517486572,-0.408956557512283,0.785338286672842
1.09847861,0.629593849182129,-0.209574818611145,-0.435774624347687,0.793857381869836
1.10347861,0.576362609863281,-0.188891530036926,-0.413794219493866,0.734233971057347
1.10847861,0.449098587036133,-0.181861519813538,-0.35355743765831,0.599804980798134
1.11347861,0.274872779846191,-0.13323450088501,-0.306076616048813,0.432422677733653
1.11847861,0.100580215454102,-0.099373459815979,-0.197705805301666,0.243061822807639
1.12347861,-0.0981130599975586,-0.0637859106063843,-0.108410537242889,0.159523225642105
1.12847861,-0.307559967041016,-0.0252647399902344,-0.0321345329284668,0.310264513954747
1.13347861,-0.488822937011719,-0.00536215305328369,0.0126185417175293,0.489015177708429
1.13847861,-0.63980770111084,-0.0068967342376709,0.0862497091293335,0.64563183910707
1.14347861,-0.592350006103516,0.00600194931030273,0.110632359981537,0.602622661539908
1.14847861,-0.43846321105957,0.00589776039123535,0.11054664850235,0.452222658129161
1.15347861,-0.203092575073242,-0.00110733509063721,0.0857304334640503,0.220448468950949
1.15847861,0.0125436782836914,-0.0179100036621094,0.0528623461723328,0.0572061162718207
1.16347861,0.206992149353027,-0.0485228300094605,-0.00353854894638062,0.212632867296095
1.16847861,0.37631893157959,-0.080837607383728,-0.0479959845542908,0.387884353340097
1.17347861,0.488895416259766,-0.0883405208587647,-0.0920403003692627,0.505266456988262
1.17847861,0.611226081848145,-0.103783130645752,-0.167093455791473,0.642096943075113
