Time (s),Linear Acceleration x (m/s^2),Linear Acceleration y (m/s^2),Linear Acceleration z (m/s^2),Absolute acceleration (m/s^2)
0.009621269,0,0,0,0
0.014621269,-0.0181941986083984,0.006195068359375,-0.0678274035453796,0.0704979744864131
0.019621269,-0.0220174789428711,-0.00427687168121338,-0.125156819820404,0.127150660863145
0.024621269,-0.0328073501586914,0.00669634342193604,-0.155327379703522,0.158895431417085
0.029621269,-0.0162258148193359,-0.00379049777984619,-0.174068033695221,0.174863733502665
0.034621269,0.0211029052734375,-0.013916015625,-0.175947904586792,0.177754474571916
0.039621269,0.0634393692016602,-0.032015323638916,-0.173866093158722,0.187826922624757
0.044621269,0.119965553283691,-0.0380948781967163,-0.150764584541321,0.196399882055468
0.049621269,0.166072845458984,-0.0461333990097046,-0.126724064350128,0.213933328372294
0.054621269,0.20551586151123,-0.040892481803894,-0.0902780294418335,0.228164605056713
0.059621269,0.213134765625,-0.051535964012146,-0.054857075214386,0.226034693367549
0.064621269,0.204599380493164,-0.032162070274353,-0.01982581615448,0.20805856927488
0.069621269,0.160488128662109,0.00136971473693848,0.0234463810920715,0.162197559618636
0.074621269,0.139129638671875,-0.00303888320922852,0.0615034103393555,0.152147824997589
0.079621269,0.105411529541016,0.0194928646087647,0.128375172615051,0.167247562836581
0.084621269,0.0540065765380859,0.0402730703353882,0.16053694486618,0.174099802327775
0.089621269,0.00970935821533203,0.0547655820846558,0.216045081615448,0.22308970820782
0.094621269,-0.035090446472168,0.0766522884368897,0.285335123538971,0.297528226360505
0.099621269,-0.0914621353149414,0.0970684289932251,0.305625140666962,0.333458136369892
0.104621269,-0.154096603393555,0.133318901062012,0.361115247011185,0.414637087320662
0.109621269,-0.21196174621582,0.156803131103516,0.440137684345245,0.513065478241833
0.114621269,-0.252840042114258,0.174847722053528,0.464736104011536,0.557206836978396
0.119621269,-0.281469345092773,0.195375084877014,0.503422498703003,0.60895864245286
0.124621269,-0.297748565673828,0.197946190834045,0.535584807395935,0.643962723098062
0.129621269,-0.307929039001465,0.192365169525146,0.579096436500549,0.683503719283545
0.134621269,-0.268435478210449,0.173543334007263,0.584607541561127,0.666288880584521
0.139621269,-0.221574783325195,0.132068991661072,0.581073462963104,0.635754648055296
0.144621269,-0.166770935058594,0.0980155467987061,0.580722212791443,0.612093032654316
0.149621269,-0.136327743530273,0.0669273138046265,0.547701358795166,0.568367220567153
0.154621269,-0.115498542785645,0.0266819000244141,0.527761816978455,0.540910688223962
0.159621269,-0.0913381576538086,0.0056682825088501,0.50620311498642,0.514408769454941
0.164621269,-0.100054740905762,-0.0150744915008545,0.439961552619934,0.451446961730247
0.169621269,-0.0897741317749023,-0.0478464365005493,0.403256863355637,0.415890338989938
0.174621269,-0.0908327102661133,-0.0916624069213867,0.36323094367981,0.385472822055504
0.179621269,-0.0994539260864258,-0.120796203613281,0.311341881752014,0.348448810522106
0.184621269,-0.115250587463379,-0.138944149017334,0.268748760223389,0.323750012476314
0.189621269,-0.111519813537598,-0.158333659172058,0.233114033937454,0.303064958807294
0.194621269,-0.103043556213379,-0.172043263912201,0.219790011644363,0.297530684725613
0.199621269,-0.0961599349975586,-0.195044875144959,0.18204203248024,0.283599256008516
0.204621269,-0.10434627532959,-0.198943674564362,0.161634057760239,0.276753138107537
0.209621269,-0.107847213745117,-0.199758768081665,0.143051743507385,0.268325153980375
0.214621269,-0.112903594970703,-0.186489105224609,0.108262896537781,0.24340555230219
0.219621269,-0.12049674987793,-0.162248134613037,0.0681013762950897,0.21326444000311
0.224621269,-0.108019828796387,-0.143778741359711,0.0247058570384979,0.181524073478396
0.229621269,-0.0962867736816406,-0.123123168945313,0.019887387752533,0.157562577120251
0.234621269,-0.0759944915771484,-0.0893557071685791,-0.00323796272277832,0.117346024884784
0.239621269,-0.0450887680053711,-0.073178768157959,-0.0356877446174622,0.0930684921186525
0.244621269,-0.0298986434936523,-0.0424598455429077,-0.0494949817657471,0.0717392541519616
0.249621269,0.00887966156005859,-0.0237002372741699,-0.030167818069458,0.0393782539397705
0.254621269,0.0250816345214844,0.00244426727294922,-0.0128017365932465,0.0282656557074799
0.259621269,0.0340681076049805,0.0304173231124878,-0.00502082705497742,0.0459462534427999
0.264621269,0.0366477966308594,0.0455391407012939,0.000277906656265259,0.0584546966959771
0.269621269,0.048253059387207,0.06644606590271,0.000924408435821533,0.082123638163009
0.274621269,0.0539665222167969,0.0970364809036255,0.0147410929203033,0.112007874575053
0.279621269,0.0624122619628906,0.118050217628479,0.03154057264328,0.137207696752485
0.284621269,0.048919677734375,0.12963080406189,0.0170275866985321,0.139596629401082
0.289621269,0.0498008728027344,0.130222082138062,0.0361120998859406,0.144020836570471
0.294621269,0.0460071563720703,0.13896119594574,0.0483595132827759,0.154160678971849
0.299621269,0.0388622283935547,0.154154658317566,0.0609081983566284,0.17024611626633
0.304621269,0.0187492370605469,0.158075213432312,0.0810517966747284,0.178630066719534
0.309621269,0.0163354873657227,0.165178298950195,0.124616116285324,0.207556968154753
0.314621269,0.0161418914794922,0.158161997795105,0.13345193862915,0.207569742811791
0.319621269,0.0159330368041992,0.157558441162109,0.173368960618973,0.234809115132571
0.324621269,0.0256032943725586,0.153427243232727,0.211587578058243,0.26261140652545
0.329621269,0.0407533645629883,0.146889448165894,0.22954922914505,0.275554341839811
0.334621269,0.0593557357788086,0.144996762275696,0.2194444835186,0.269635023294497
0.339621269,0.0751953125,0.114586591720581,0.247429922223091,0.282853298434784
0.344621269,0.0751104354858398,0.101383328437805,0.229617968201637,0.262001084205865
0.349621269,0.0778408050537109,0.0910544395446777,0.237845748662949,0.266309410365544
0.354621269,0.0665159225463867,0.0934032201766968,0.226026773452759,0.253449465986887
0.359621269,0.0537405014038086,0.0727168321609497,0.203763633966446,0.22292464578388
0.364621269,0.0434131622314453,0.0687850713729858,0.189917385578156,0.206602763881712
0.369621269,0.0321788787841797,0.0696854591369629,0.163917034864426,0.180998170636285
0.374621269,0.0263786315917969,0.073275089263916,0.176950395107269,0.193330062949116
0.379621269,0.0150547027587891,0.0754594802856445,0.166695147752762,0.183597520474679
0.384621269,0.00899982452392578,0.0815740823745728,0.161039501428604,0.180745812612875
0.389621269,-0.000754356384277344,0.0728081464767456,0.149025529623032,0.165862002057008
0.394621269,-0.00979518890380859,0.0792859792709351,0.130784898996353,0.153254370378462
0.399621269,-0.0168294906616211,0.0804930925369263,0.135633796453476,0.158615561791618
0.404621269,-0.0414037704467773,0.0808348655700684,0.125506997108459,0.154921121936692
0.409621269,-0.0312137603759766,0.0831371545791626,0.128644406795502,0.156318484857342
0.414621269,-0.0223779678344727,0.0917916297912598,0.140159517526627,0.169030077493425
0.419621269,-0.0183124542236328,0.0745645761489868,0.14198961853981,0.161419558198663
0.424621269,-0.0298957824707031,0.0815612077713013,0.147116273641586,0.170848431051722
0.429621269,-0.0260648727416992,0.0808911323547363,0.161269873380661,0.182292964606117
0.434621269,-0.0234222412109375,0.0590790510177612,0.169188603758812,0.180731068979185
0.439621269,-0.0118246078491211,0.0505410432815552,0.157259613275528,0.16560436097622
0.444621269,-0.0164918899536133,0.046798586845398,0.164934292435646,0.172236497253676
0.449621269,0.00427627563476563,0.0390539169311523,0.154456987977028,0.159375205398787
0.454621269,0.000771522521972656,0.0331434011459351,0.144882902503014,0.148627506620477
0.459621269,-0.00638580322265625,0.0331394672393799,0.157679632306099,0.161250951054234
0.464621269,-0.0226554870605469,0.0239526033401489,0.16309866309166,0.1663976328047
0.469621269,-0.03515625,0.0228294134140015,0.15438948571682,0.15997892777111
0.474621269,-0.067713737487793,0.0201551914215088,0.123935088515282,0.142657941072673
0.479621269,-0.0999612808227539,0.0161924362182617,0.094877302646637,0.138766549326232
0.484621269,-0.113537788391113,0.0113551616668701,0.0775306224822998,0.137952044246248
0.489621269,-0.119179725646973,0.0167175531387329,0.0197834074497223,0.121961743176111
0.494621269,-0.137380599975586,0.0137581825256348,-0.0153165757656097,0.138914773617655
0.499621269,-0.152203559875488,0.0100282430648804,-0.0605284869670868,0.164104195657102
0.504621269,-0.135193824768066,-0.00666153430938721,-0.0991948544979096,0.167813484123402
0.509621269,-0.125602722167969,-0.0205931663513184,-0.124573916196823,0.178097678011225
0.514621269,-0.105610847473145,-0.0359318256378174,-0.130392014980316,0.17160077146764
0.519621269,-0.0642843246459961,-0.0544689893722534,-0.125184088945389,0.15089864586375
0.524621269,-0.0486793518066406,-0.0599919557571411,-0.110058277845383,0.134467611602843
0.529621269,-0.0848388671875,-0.0646114349365234,-0.128201574087143,0.166757052350526
0.534621269,-0.101058959960938,-0.0533908605575562,-0.136216223239899,0.177815513533563
0.539621269,-0.107769966125488,-0.0510629415512085,-0.144071340560913,0.187024973652102
0.544621269,-0.160357475280762,-0.0204293727874756,-0.124789267778397,0.204216161220355
0.549621269,-0.351616859436035,0.113008618354797,-0.131967514753342,0.392199934487876
0.554621269,-0.407780647277832,0.19280993938446,-0.155737012624741,0.477194662712237
0.559621269,-0.379759788513184,0.211683034896851,-0.147571235895157,0.45913448345593
0.564621269,-0.31285572052002,0.206840634346008,-0.143628478050232,0.401610370366336
0.569621269,-0.197193145751953,0.190041065216064,-0.138820707798004,0.307037346447539
0.574621269,-0.0980758666992188,0.169143557548523,-0.168708354234695,0.258245866331976
0.579621269,0.00482463836669922,0.172330617904663,-0.136747628450394,0.220047796829642
0.584621269,0.102027893066406,0.139165639877319,-0.124476104974747,0.2127699861252
0.589621269,0.194098472595215,0.11463737487793,-0.126485228538513,0.258484927647896
0.594621269,0.262188911437988,0.103390574455261,-0.131610691547394,0.311053066689286
0.599621269,0.33199405670166,0.0994824171066284,-0.124087601900101,0.368122992957408
0.604621269,0.355498313903809,0.0974513292312622,-0.104350715875626,0.383099053328439
0.609621269,0.357078552246094,0.087981104850769,-0.121735543012619,0.387382639927896
0.614621269,0.346759796142578,0.086551308631897,-0.12656843662262,0.379147800199118
0.619621269,0.32460880279541,0.0983309745788574,-0.122507750988007,0.360621691618844
0.624621269,0.26365852355957,0.0998436212539673,-0.126881122589111,0.309165627164779
0.629621269,0.21723747253418,0.0980277061462402,-0.146605253219605,0.279811813397713
0.634621269,0.162035942077637,0.126644730567932,-0.133869111537933,0.245388413193384
0.639621269,0.100800514221191,0.110907077789307,-0.130854159593582,0.19895711762579
0.644621269,0.0343685150146484,0.122473955154419,-0.123047292232513,0.176979379141278
0.649621269,-0.0184974670410156,0.13417649269104,-0.139124870300293,0.194168012334358
0.654621269,-0.0469684600830078,0.138461470603943,-0.139248192310333,0.2019100644992
0.659621269,-0.088465690612793,0.139543533325195,-0.121735572814941,0.205227010398388
0.664621269,-0.105568885803223,0.119243741035461,-0.129568517208099,0.205309181668457
0.669621269,-0.109086036682129,0.118467092514038,-0.127603113651276,0.205467199380448
0.674621269,-0.0979461669921875,0.123627185821533,-0.12766644358635,0.202918342001407
0.679621269,-0.0839929580688477,0.126200437545776,-0.129475712776184,0.199362302456612
0.684621269,-0.0760984420776367,0.112346172332764,-0.119565010070801,0.180854712290549
0.689621269,-0.0735502243041992,0.0931710004806519,-0.121179282665253,0.169631628457163
0.694621269,-0.0482311248779297,0.0951710939407349,-0.102650612592697,0.148057174073135
0.699621269,-0.0450525283813477,0.0908703804016113,-0.105965614318848,0.14668288163878
0.704621269,-0.056025505065918,0.0853443145751953,-0.0969652831554413,0.140800480771963
0.709621269,-0.0619182586669922,0.0845907926559448,-0.089490681886673,0.137833432457642
0.714621269,-0.0703802108764648,0.0791984796524048,-0.0906870663166046,0.139462960170005
0.719621269,-0.0936164855957031,0.0834434032440186,-0.0868396162986755,0.152538411159732
0.724621269,-0.105524063110352,0.0926138162612915,-0.0890036523342133,0.166235667011106
0.729621269,-0.123719215393066,0.0868570804595947,-0.0811444818973541,0.171566382563224
0.734621269,-0.135893821716309,0.0841439962387085,-0.0742666721343994,0.176246649538657
0.739621269,-0.135829925537109,0.0866168737411499,-0.0697115659713745,0.17553334132947
0.744621269,-0.142943382263184,0.0879937410354614,-0.0684724152088165,0.181284805316891
0.749621269,-0.111323356628418,0.0727684497833252,-0.0764492452144623,0.153403468372613
0.754621269,-0.0944833755493164,0.0664588212966919,-0.0666203200817108,0.133349729025328
0.759621269,-0.0524816513061523,0.0612601041793823,-0.0601356029510498,0.100615181906985
0.764621269,-0.0117025375366211,0.0596053600311279,-0.0570080280303955,0.0833046432628504
0.769621269,0.0382137298583984,0.0544081926345825,-0.0602433681488037,0.0897206998488353
0.774621269,0.0876731872558594,0.0465378761291504,-0.053288459777832,0.112658872813937
0.779621269,0.127318382263184,0.0195646286010742,-0.0290547609329224,0.132048946558772
0.784621269,0.182794570922852,0.0109914541244507,-0.0315088331699371,0.185815698449755
0.789621269,0.211047172546387,0.00137698650360107,-0.0201399922370911,0.212010434693591
0.794621269,0.23630428314209,-0.00996935367584229,-0.0154400169849396,0.237017924150276
0.799621269,0.251114845275879,-0.00998556613922119,-0.0243130624294281,0.252486637376608
0.804621269,0.238154411315918,-0.0140818357467651,-0.00146767497062683,0.238574885092815
0.809621269,0.21906852722168,-0.00599384307861328,-0.0243367254734039,0.220497668878142
0.814621269,0.180161476135254,-0.0188642740249634,0.00616461038589478,0.181251264102992
0.819621269,0.123284339904785,-0.012033224105835,-0.00474750995635986,0.123961146327894
0.824621269,0.0746774673461914,-0.00122976303100586,-0.00257295370101929,0.0747318977217995
0.829621269,0.0116977691650391,0.00759530067443848,-0.00243544578552246,0.0141583117619257
0.834621269,-0.0533084869384766,0.0333904027938843,-0.00461134314537048,0.0630712158120637
0.839621269,-0.113203048706055,0.0236450433731079,-0.00405451655387878,0.115717144006181
0.844621269,-0.163101196289063,0.0252608060836792,-0.00353485345840454,0.165083626516663
0.849621269,-0.209621429443359,0.0283572673797607,-0.00119131803512573,0.211534152168829
0.854621269,-0.243777275085449,0.0372911691665649,-0.0113221108913422,0.246872803971867
0.859621269,-0.256167411804199,0.0345184803009033,-0.00710362195968628,0.258580219269944
0.864621269,-0.266969680786133,0.035794734954834,-0.0101988613605499,0.269551646781444
0.869621269,-0.229736328125,-0.0164949893951416,0.302850216627121,0.380485372710434
0.874621269,-0.174424171447754,-0.078176736831665,0.863265991210938,0.884173945187419
0.879621269,-0.126063346862793,-0.131321549415588,1.29466450214386,1.30739951425514
0.884621269,-0.116542816162109,-0.172779202461243,1.56329870223999,1.57712958035393
0.889621269,-0.113354682922363,-0.17769193649292,1.52066957950592,1.53520672173807
0.894621269,-0.125302314758301,-0.142853260040283,1.21964335441589,1.23435717519638
0.899621269,-0.0951786041259766,-0.108259081840515,0.82305771112442,0.835585418329982
0.904621269,-0.0737152099609375,-0.0771450996398926,0.464346528053284,0.476448314818274
0.909621269,-0.0417270660400391,-0.0506745576858521,0.167666360735893,0.180058510932933
0.914621269,-0.00778961181640625,-0.0289103984832764,-0.0563162565231323,0.0637809528110969
0.919621269,0.0126943588256836,-0.0474593639373779,-0.135390400886536,0.144028117475556
0.924621269,0.0146522521972656,-0.0447139739990234,-0.158608138561249,0.165440531862969
0.929621269,-0.0140266418457031,-0.0494775772094727,-0.161920487880707,0.169891205550826
0.934621269,-0.0154132843017578,-0.055065393447876,-0.166276842355728,0.175834453939858
0.939621269,-0.0145177841186523,-0.0629488229751587,-0.168243288993835,0.180219656700197
0.944621269,0.00536346435546875,-0.0713895559310913,-0.142788201570511,0.159730103467291
0.949621269,0.0630292892456055,-0.0697052478790283,-0.120738595724106,0.153001050264735
0.954621269,0.134232521057129,-0.0690815448760986,-0.102320820093155,0.182373736531214
0.959621269,0.151383399963379,-0.0651628971099854,-0.0780378580093384,0.182354172496613
0.964621269,0.162971496582031,-0.0736057758331299,-0.0550388693809509,0.187101031736646
0.969621269,0.138568878173828,-0.0784851312637329,-0.0453615188598633,0.165586585269195
0.974621269,0.107260704040527,-0.0790337324142456,-0.0480026304721832,0.141617237732012
0.979621269,0.0525455474853516,-0.0737390518188477,-0.0184445381164551,0.0924049961312017
0.984621269,-0.00556468963623047,-0.0854002237319946,-0.0115208327770233,0.0863533066656885
0.989621269,-0.0149011611938477,-0.0793212652206421,-0.00279635190963745,0.080757212093602
0.994621269,-0.0318479537963867,-0.0748202800750732,0.029421329498291,0.0864753207624938
0.999621269,-0.0230474472045898,-0.0720762014389038,0.0200883746147156,0.0782924417244152
1.004621269,-0.0269575119018555,-0.0790059566497803,0.0117565095424652,0.084302219132759
1.009621269,-0.033839225769043,-0.087274432182312,0.0108119249343872,0.0942274770657692
1.014621269,-0.0294599533081055,-0.0734695196151733,-0.0160129070281982,0.0807593483931973
1.019621269,-0.0359201431274414,-0.0900399684906006,-0.0343566536903381,0.102848589007735
1.024621269,-0.0697898864746094,-0.0882728099822998,-0.038134902715683,0.118814931895973
1.029621269,-0.0899314880371094,-0.0949583053588867,-0.0513684749603272,0.140511467563861
1.034621269,-0.115619659423828,-0.0929925441741943,-0.0576365292072296,0.159177537411305
1.039621269,-0.116086959838867,-0.0937761068344116,-0.0811041295528412,0.169847049689342
1.044621269,-0.127773284912109,-0.111699461936951,-0.111045986413956,0.202815170125126
1.049621269,-0.108049392700195,-0.10107946395874,-0.131923258304596,0.19823086384004
1.054621269,-0.101587295532227,-0.117433667182922,-0.158689916133881,0.222020571758924
1.059621269,-0.0993413925170898,-0.122382283210754,-0.176833361387253,0.23688852486059
1.064621269,-0.0845813751220703,-0.120550155639648,-0.181903928518295,0.234041424223732
1.069621269,-0.0547056198120117,-0.131235837936401,-0.184454202651978,0.232892470625099
1.074621269,-0.0402498245239258,-0.132220029830933,-0.193013250827789,0.237394818093847
1.079621269,-0.00647926330566406,-0.129331350326538,-0.1825812458992,0.22384032341018
1.084621269,0.00633525848388672,-0.119292974472046,-0.165419906377792,0.204045815160428
1.089621269,0.00926685333251953,-0.131683468818665,-0.154466599225998,0.203190405303124
1.094621269,0.0116662979125977,-0.139687776565552,-0.136800438165665,0.195865099778217
1.099621269,0.022273063659668,-0.146032214164734,-0.114370673894882,0.18682116578646
1.104621269,0.0185260772705078,-0.154704451560974,-0.0722746849060059,0.171756551403657
1.109621269,0.0302057266235352,-0.151842713356018,-0.0353475511074066,0.158801904552384
1.114621269,0.0461835861206055,-0.172393918037415,-0.0254260897636414,0.180274991731851
1.119621269,0.0537357330322266,-0.165711641311646,0.00458073616027832,0.174266635402421
1.124621269,0.0565395355224609,-0.174990057945251,0.0328033268451691,0.186800154466984
1.129621269,0.0481758117675781,-0.178374767303467,0.0433782041072845,0.189789712686447
1.134621269,0.0697011947631836,-0.173656344413757,0.0602980852127075,0.196597664245748
1.139621269,0.0579099655151367,-0.182654321193695,0.0574022233486176,0.200027949052272
1.144621269,0.0442276000976563,-0.178390502929688,0.0633452236652374,0.194401310456242
1.149621269,0.0272665023803711,-0.185189664363861,0.066441684961319,0.198628224177123
