Time (s),Linear Acceleration x (m/s^2),Linear Acceleration y (m/s^2),Linear Acceleration z (m/s^2),Absolute acceleration (m/s^2)
0.018397396,0.0747594833374023,-0.0138875246047974,0.0120183229446411,0.0769823601542969
0.023397396,0.128684043884277,-0.0267748832702637,0.0166410207748413,0.132489248986382
0.028397396,0.190901756286621,-0.0444689989089966,0.0142905712127686,0.196532930683059
0.033397396,0.210659027099609,-0.0383462905883789,-0.00530660152435303,0.214186422819423
0.038397396,0.223992347717285,-0.0407122373580933,0.0114454030990601,0.22794967725071
0.043397396,0.203267097473145,-0.034659743309021,-0.0106838941574097,0.206477495906384
0.048397396,0.165297508239746,-0.0177229642868042,-0.00888335704803467,0.166482082296634
0.053397396,0.101399421691895,-0.00956344604492188,-0.0111454725265503,0.102457424218769
0.058397396,0.0250511169433594,-0.0184632539749146,-0.0321381092071533,0.0447359840716953
0.063397396,-0.0425100326538086,0.0020984411239624,-0.0476862192153931,0.0639177740103419
0.068397396,-0.0874862670898438,0.0154688358306885,-0.0435376167297363,0.0989376363260094
0.073397396,-0.121017456054688,0.019782543182373,-0.0405956506729126,0.12916880636697
0.078397396,-0.143918991088867,0.0358543395996094,-0.0478909015655518,0.155858102506488
0.083397396,-0.150740623474121,0.0307906866073608,-0.0279456377029419,0.156370587431728
0.088397396,-0.138964653015137,0.0313514471054077,-0.0316677093505859,0.145934683467412
0.093397396,-0.0880661010742188,0.0186090469360352,-0.039942741394043,0.0984751612151687
0.098397396,-0.0339927673339844,0.00425851345062256,-0.00651824474334717,0.0348730652849115
0.103397396,0.0370626449584961,-0.00521552562713623,-0.00444746017456055,0.0376911297375278
0.108397396,0.109681129455566,-0.019492506980896,0.0275182723999023,0.114748260566007
0.113397396,0.165663719177246,-0.0355209112167358,0.040906548500061,0.174297299736664
0.118397396,0.217378616333008,-0.0450382232666016,0.0282069444656372,0.223780106600102
0.123397396,0.230203628540039,-0.045175313949585,0.0493890047073364,0.239736925335721
0.128397396,0.223541259765625,-0.0354601144790649,0.0310077667236328,0.228450423798377
0.133397396,0.183259010314941,-0.027288556098938,0.0361357927322388,0.188770563573784
0.138397396,0.109550476074219,0.00413417816162109,0.0240284204483032,0.112230847926942
0.143397396,0.0416269302368164,0.0160187482833862,0.00285804271697998,0.0446941833539819
0.148397396,-0.0646581649780273,0.0256909132003784,-0.00328075885772705,0.0696524565114378
0.153397396,-0.15789794921875,0.0490027666091919,-0.0405205488204956,0.170220293677211
0.158397396,-0.257179260253906,0.0606616735458374,-0.0475106239318848,0.268473965085118
0.163397396,-0.355057716369629,0.0898363590240479,-0.0676596164703369,0.372443790466731
0.168397396,-0.428627014160156,0.0882806777954102,-0.0778164863586426,0.444488471041795
0.173397396,-0.457891464233398,0.107035756111145,-0.0997860431671143,0.480706251795251
0.178397396,-0.475471496582031,0.10599148273468,-0.0850911140441895,0.49451778144323
0.183397396,-0.459059715270996,0.0903780460357666,-0.101018786430359,0.478653119285557
0.188397396,-0.416782379150391,0.0850049257278442,-0.088324785232544,0.434436021359453
0.193397396,-0.321212768554688,0.104794979095459,0.107474684715271,0.354556678375731
0.198397396,-0.217954635620117,0.097739577293396,0.29938542842865,0.382999847145134
0.203397396,-0.103047370910645,0.0628564357757568,0.2499178647995,0.277540323765698
0.208397396,-0.0367527008056641,0.0149370431900024,0.0598042011260986,0.0717664179690022
0.213397396,0.0261039733886719,-0.00671839714050293,-0.0535235404968262,0.0599276536678135
0.218397396,0.115133285522461,-0.0153988599777222,-0.0477173328399658,0.125577634064232
0.223397396,0.195501327514648,-0.0337573289871216,-0.035520076751709,0.201549006876198
0.228397396,0.263415336608887,-0.0457245111465454,-0.0244646072387695,0.268471390445446
0.233397396,0.285684585571289,-0.0537559986114502,-0.0148395299911499,0.291076624740139
0.238397396,0.291435241699219,-0.0496369600296021,0.019292950630188,0.296260942159579
0.243397396,0.288257598876953,-0.0423988103866577,0.0166469812393188,0.291834241337257
0.248397396,0.268979072570801,-0.0363575220108032,0.0183844566345215,0.272047053160957
0.253397396,0.213271141052246,-0.0144670009613037,0.0110474824905396,0.214046538378737
0.258397396,0.161904335021973,0.00255715847015381,0.0058588981628418,0.162030489248262
0.263397396,0.0919580459594727,-0.00135612487792969,0.0184239149093628,0.0937953193499359
0.268397396,0.0193967819213867,0.00908553600311279,0.00456142425537109,0.0218995137984198
0.273397396,-0.0406160354614258,0.0167951583862305,0.0106246471405029,0.045217505555731
0.278397396,-0.0903968811035156,0.0312565565109253,0.0016326904296875,0.0956620829597757
0.283397396,-0.146990776062012,0.0371092557907105,0.00669944286346436,0.151750675936991
0.288397396,-0.177534103393555,0.0229647159576416,0.0326567888259888,0.181967584759467
0.293397396,-0.194169044494629,0.0369298458099365,0.0166364908218384,0.198348693412304
0.298397396,-0.190025329589844,0.0386644601821899,0.0245332717895508,0.19546469704683
0.303397396,-0.184929847717285,0.0349464416503906,0.0256350040435791,0.189940663874476
0.308397396,-0.169476509094238,0.0385754108428955,0.0297504663467407,0.176338990879261
0.313397396,-0.149797439575195,0.0319408178329468,0.0436267852783203,0.159256978311289
0.318397396,-0.126062393188477,0.0264551639556885,0.061620831489563,0.142789108652563
0.323397396,-0.072662353515625,0.0329736471176147,0.0717852115631104,0.107332174215503
0.328397396,-0.0419521331787109,0.0167497396469116,0.0621058940887451,0.0767963367423606
0.333397396,-0.0193367004394531,0.0193651914596558,0.0827207565307617,0.0871300303292489
0.338397396,0.0095367431640625,0.0105184316635132,0.0905218124389648,0.0916285184976404
0.343397396,0.0175552368164063,0.0129753351211548,0.0833277702331543,0.0861397872833207
0.348397396,-0.00176715850830078,0.00467050075531006,0.0725276470184326,0.0726993535633514
0.353397396,-0.000957489013671875,0.0161477327346802,0.0744662284851074,0.0762029214825665
0.358397396,-0.00113582611083984,0.0147024393081665,0.0754165649414063,0.0768447141326307
0.363397396,-0.0255184173583984,0.0110708475112915,0.0809050798416138,0.0855534057374315
0.368397396,-0.0365571975708008,0.00665867328643799,0.0696874856948853,0.0789753903861255
0.373397396,-0.051849365234375,0.0149911642074585,0.0668507814407349,0.0859192566235271
0.378397396,-0.0582122802734375,0.0139575004577637,0.0814975500106812,0.101120383955982
0.383397396,-0.0573654174804688,0.00405788421630859,0.0476090908050537,0.0746584427530155
0.388397396,-0.038304328918457,0.00532436370849609,0.0547984838485718,0.0670704427814211
0.393397396,-0.0375614166259766,0.00233447551727295,0.0474824905395508,0.0605879253872376
0.398397396,-0.0161361694335938,-0.00161147117614746,0.0543367862701416,0.0567050186977154
0.403397396,0.00998020172119141,-0.0229272842407227,0.0560801029205322,0.0614023023397987
0.408397396,0.0202646255493164,-0.0205113887786865,0.043574333190918,0.0522503074758185
0.413397396,0.0153446197509766,-0.0349310636520386,0.0352092981338501,0.0519165796084755
0.418397396,0.0300016403198242,-0.0407388210296631,0.0452098846435547,0.0678504504793487
0.423397396,0.0352973937988281,-0.0338147878646851,0.0470160245895386,0.0678222121102467
0.428397396,0.0351238250732422,-0.0325154066085815,0.024094820022583,0.0535863332074305
0.433397396,0.0260066986083984,-0.0281839370727539,0.0367387533187866,0.0531076141136813
0.438397396,0.000574111938476563,-0.0255604982376099,0.0152833461761475,0.0297867310226
0.443397396,-0.00646877288818359,-0.0123587846755981,0.0263569355010986,0.0298206745454521
0.448397396,-0.00301074981689453,-0.0121161937713623,0.0250319242477417,0.0279725579364814
0.453397396,-0.0207052230834961,-0.00614821910858154,0.0132820606231689,0.0253558670832216
0.458397396,-0.0389194488525391,0.00477385520935059,0.00895905494689941,0.0402216093423276
0.463397396,-0.04986572265625,0.0109002590179443,-0.00674426555633545,0.0514868047229841
0.468397396,-0.0472145080566406,0.0117164850234985,-0.00432968139648438,0.0488388363224546
0.473397396,-0.0609188079833984,0.0164749622344971,-0.0235869884490967,0.067371147910987
0.478397396,-0.0663137435913086,0.0115008354187012,-0.0160230398178101,0.0691846775624849
0.483397396,-0.0716953277587891,0.0134873390197754,-0.033385157585144,0.0802290289313005
0.488397396,-0.0732078552246094,0.00919520854949951,-0.0319887399673462,0.0804190363754419
0.493397396,-0.054387092590332,0.0034029483795166,-0.0355808734893799,0.0650809838306879
0.498397396,-0.0343770980834961,-0.00514662265777588,-0.0368459224700928,0.0506546602011694
0.503397396,-0.0351171493530273,-0.0206001996994019,0.029330849647522,0.0501784928767655
0.508397396,-0.0237236022949219,-0.00850009918212891,0.153824210166931,0.155874785085446
0.513397396,0.016845703125,-0.0248823165893555,0.187003254890442,0.189402018817773
0.518397396,0.0341911315917969,-0.0223945379257202,0.108889102935791,0.116307289309808
0.523397396,0.0355138778686523,-0.000882625579833984,-0.0212767124176025,0.041409093693114
0.528397396,0.02203369140625,-0.00159597396850586,-0.0725585222244263,0.075847016007794
0.533397396,0.0227012634277344,-0.00368618965148926,-0.0605258941650391,0.06474812136147
0.538397396,0.0189447402954102,-0.00274276733398438,-0.0568296909332275,0.0599669886610548
0.543397396,0.00501537322998047,-0.00159561634063721,-0.0684837102890015,0.0686856501395335
0.548397396,-0.014491081237793,0.00410139560699463,-0.067808985710144,0.069461294433691
0.553397396,-0.0163488388061523,0.00930190086364746,-0.062867283821106,0.0656209209401253
0.558397396,-0.0187807083129883,0.00188004970550537,-0.0588822364807129,0.0618333839006351
0.563397396,-0.0177698135375977,0.0112420320510864,-0.0611485242843628,0.0646629072958675
0.568397396,-0.0422134399414063,0.0166926383972168,-0.0671281814575195,0.0810358651100895
0.573397396,-0.0359401702880859,0.0086522102355957,-0.0597280263900757,0.0702423926041186
0.578397396,-0.0285253524780273,0.00438714027404785,-0.0518186092376709,0.0593136661917496
0.583397396,-0.0143842697143555,0.00838661193847656,-0.0461525917053223,0.0490642863612639
0.588397396,-0.0201225280761719,-0.00629711151123047,-0.0338596105575562,0.039887880072405
0.593397396,-0.00687980651855469,-0.0117859840393066,-0.0342175960540772,0.0368386351162409
0.598397396,-0.00382614135742188,-0.0119175910949707,-0.0339729785919189,0.0362054085683463
0.603397396,-0.0106325149536133,0.000685334205627441,-0.0210493803024292,0.0235922968006192
0.608397396,-0.00454235076904297,-0.0124411582946777,-0.0232948064804077,0.0267967046328816
0.613397396,0.000630378723144531,-0.00472128391265869,-0.0153154134750366,0.0160390083555641
0.618397396,-0.00475215911865234,-0.00691008567810059,-0.0166479349136353,0.0186409773685909
0.623397396,-0.00156116485595703,-0.0121386051177979,-0.00225687026977539,0.0124449360515794
0.628397396,-0.0127019882202148,-0.00373446941375732,-0.0025942325592041,0.013491360536284
0.633397396,-0.01251220703125,-0.0138891935348511,0.00712227821350098,0.0200047961447229
0.638397396,-0.0123052597045898,-0.00541770458221436,0.00678646564483643,0.0150607787078256
0.643397396,-0.0285263061523438,-0.0223244428634644,0.0242208242416382,0.0435749838646632
0.648397396,-0.00842189788818359,-0.0110057592391968,0.0214264392852783,0.0255175900295438
0.653397396,-0.0237674713134766,-0.00799465179443359,0.0275181531906128,0.0372297717555884
0.658397396,-0.0178976058959961,-0.0133310556411743,0.0293415784835815,0.0368642044431269
0.663397396,-0.0120811462402344,-0.0168759822845459,0.0375325679779053,0.0428887692940975
0.668397396,-0.0108051300048828,-0.00445926189422607,0.0477017164230347,0.0491130288290931
0.673397396,-0.0101089477539063,-0.0189180374145508,0.0572870969772339,0.0611710261838769
0.678397396,-0.00974082946777344,-0.0258891582489014,0.0605297088623047,0.0665505667031639
0.683397396,-0.0219955444335938,-0.020134449005127,0.0533108711242676,0.0610839503609461
0.688397396,-0.018498420715332,-0.0262854099273682,0.0566723346710205,0.0651526504531885
0.693397396,-0.0222835540771484,-0.0202232599258423,0.063406229019165,0.0701846628742219
0.698397396,-0.01953125,-0.0216914415359497,0.0538744926452637,0.0612735613478978
0.703397396,-0.033482551574707,-0.0176073312759399,0.0705078840255737,0.0800153802988986
0.708397396,-0.030400276184082,-0.0215963125228882,0.0565841197967529,0.067766806917753
0.713397396,-0.0348443984985352,-0.0192207098007202,0.0466626882553101,0.0613267826253789
0.718397396,-0.0380163192749023,-0.019641637802124,0.0700035095214844,0.0820458762649634
0.723397396,-0.0134286880493164,-0.028875470161438,0.0716862678527832,0.0784413375614601
0.728397396,-0.0136909484863281,-0.0117670297622681,0.0450962781906128,0.0485755017115267
0.733397396,-0.00649642944335938,-0.0107128620147705,0.0357096195220947,0.0378437040268633
0.738397396,-0.0201807022094727,0.00102007389068604,0.033307671546936,0.0389576985496891
0.743397396,-0.0210332870483398,0.005287766456604,0.0253015756607056,0.0333246060602651
0.748397396,-0.0154647827148438,-0.00363755226135254,0.0111280679702759,0.0193965251429858
0.753397396,-0.0178747177124023,-0.0060044527053833,0.00182127952575684,0.0189440239838371
0.758397396,-0.02337646484375,-0.0115363597869873,-0.00732123851776123,0.0270766918060506
0.763397396,-0.0147275924682617,-0.00649666786193848,0.00461935997009277,0.0167465566536181
0.768397396,-0.0154056549072266,0.0121170282363892,-0.00669360160827637,0.0207113707632384
0.773397396,-0.0116643905639648,0.00516033172607422,-0.00424158573150635,0.0134416546700754
0.778397396,-0.0140161514282227,-0.00238478183746338,-0.0143256187438965,0.0201832365508271
0.783397396,-0.0140495300292969,0.00124526023864746,0.00410342216491699,0.0146893853026464
0.788397396,0.00903701782226563,0.00732851028442383,-0.0111061334609985,0.0160848050831325
0.793397396,-0.0124111175537109,0.0081636905670166,-0.0220925807952881,0.0266226183686421
0.798397396,-0.00306606292724609,0.011850118637085,-0.00312924385070801,0.012634010474272
0.803397396,-0.000151634216308594,0.00665163993835449,-0.0147838592529297,0.0162120264376636
0.808397396,-0.000267982482910156,0.0021740198135376,-0.0217598676681519,0.0218698426536699
0.813397396,-0.00453758239746094,0.014582633972168,0.00822579860687256,0.0173466604941931
0.818397396,-0.0100908279418945,0.0050652027130127,0.0511825084686279,0.0524130733712306
0.823397396,-0.00932598114013672,-0.0235644578933716,0.0477724075317383,0.0540782814206697
0.828397396,0.0112190246582031,-0.00858914852142334,0.015343189239502,0.0208579347645832
0.833397396,0.00616264343261719,-0.0000739097595214844,-0.00998294353485107,0.011732126761596
0.838397396,-0.00354862213134766,0.00203096866607666,-0.0472564697265625,0.0474330210272463
0.843397396,-0.00898933410644531,0.0148489475250244,-0.0350785255432129,0.0391382463143671
0.848397396,-0.0144138336181641,-0.0116004943847656,-0.0184524059295654,0.0261308506201493
0.853397396,-0.0164108276367188,-0.000364542007446289,-0.0241416692733765,0.0291936354348405
0.858397396,-0.00514793395996094,0.00493752956390381,-0.0343174934387207,0.035050973997411
0.863397396,-0.00499725341796875,0.00208163261413574,-0.0256365537643433,0.0262018820884244
0.868397396,-0.00536537170410156,0.0021216869354248,-0.0239392518997192,0.0246247142215567
0.873397396,-0.0216169357299805,0.00206935405731201,-0.0312323570251465,0.0380399035476542
0.878397396,0.00379657745361328,-0.0191155672073364,-0.0221904516220093,0.0295336258053124
0.883397396,-0.0110197067260742,0.00444400310516357,-0.0233134031295776,0.0261667320353457
0.888397396,-0.00185489654541016,-0.00466692447662354,-0.0226266384124756,0.0231772645304315
0.893397396,0.000872611999511719,-0.00445449352264404,-0.0113853216171265,0.0122568149439557
0.898397396,-0.00276947021484375,0.00482833385467529,-0.00399768352508545,0.00685304652325153
0.903397396,-0.0127296447753906,-0.0108764171600342,-0.0120316743850708,0.0206179895929522
0.908397396,-0.00731849670410156,-0.00657498836517334,-0.0117381811141968,0.0153158663444089
0.913397396,-0.00410747528076172,-0.00226044654846191,-0.00233471393585205,0.00523754340724578
0.918397396,-0.0133190155029297,-0.00864613056182861,0.00695133209228516,0.0173341502680893
0.923397396,-0.00788974761962891,-0.010391116142273,0.00805389881134033,0.0153326024616487
0.928397396,-0.00769138336181641,-0.00663971900939941,0.0186425447463989,0.0212317620833433
0.933397396,-0.00292491912841797,-0.00200057029724121,0.0123907327651978,0.0128875013823679
0.938397396,-0.000367164611816406,-0.00243639945983887,0.0141453742980957,0.0143583587576471
0.943397396,-0.0137872695922852,-0.0122717618942261,0.03069007396698,0.035812924802334
0.948397396,-0.0113954544067383,-0.0186084508895874,0.0250134468078613,0.0331934232470221
0.953397396,-0.013087272644043,-0.00787818431854248,0.0293529033660889,0.0330898085433475
0.958397396,-0.0227298736572266,-0.0099719762802124,0.0336533784866333,0.0418167113839813
0.963397396,-0.0110397338867188,-0.0107583999633789,0.0333689451217651,0.0367573855517632
0.968397396,-0.00879764556884766,0.00469005107879639,0.0338085889816284,0.0352479195925869
0.973397396,-0.016972541809082,-0.0138291120529175,0.0394289493560791,0.0450993743078264
0.978397396,-0.00779914855957031,-0.0105332136154175,0.028416633605957,0.0312934557506433
0.983397396,-0.0148963928222656,-0.0104994773864746,0.0333809852600098,0.0380319828753817
0.988397396,-0.0147476196289063,-0.0143325328826904,0.0433093309402466,0.0479438414193534
0.993397396,-0.0146389007568359,-0.0102794170379639,0.0295521020889282,0.0345440380946309
0.998397396,-0.0153894424438477,-0.0110734701156616,0.0311788320541382,0.0364907693450701
1.003397396,-0.0192203521728516,-0.0116310119628906,0.0308284759521484,0.0381457377233884
1.008397396,-0.0191287994384766,-0.00782346725463867,0.0105739831924438,0.0232147954631513
1.013397396,-0.00601387023925781,-0.00683069229125977,0.00638937950134277,0.0111197645139043
1.018397396,-0.0204458236694336,-0.00939369201660156,0.0191460847854614,0.029543962459975
1.023397396,-0.0190439224243164,-0.00541961193084717,0.0162711143493652,0.0256279600622929
1.028397396,-0.0152521133422852,-0.00817370414733887,-0.00524365901947022,0.0180812709953313
1.033397396,-0.00522518157958984,-0.00401508808135986,0.0148196220397949,0.0162186513694308
1.038397396,-0.00406932830810547,-0.00745415687561035,0.0118614435195923,0.0145882737146598
1.043397396,-0.00543689727783203,-0.00522339344024658,0.00784814357757568,0.0108828786934134
1.048397396,0.00704860687255859,-0.00098717212677002,0.00971686840057373,0.0120447041958622
1.053397396,-0.000715255737304688,-0.00942873954772949,-0.0176002979278564,0.019979569749571
1.058397396,-0.00876808166503906,-0.000341057777404785,-0.0135505199432373,0.016143486836009
1.063397396,-0.00319671630859375,-0.00405502319335938,-0.0186425447463989,0.0193444225263459
1.068397396,-0.000317573547363281,-0.00456976890563965,-0.0184776782989502,0.0190370227748046
1.073397396,0.0030975341796875,0.00653254985809326,-0.0124768018722534,0.0144201078568183
1.078397396,-0.00421714782714844,-0.00376641750335693,-0.0151354074478149,0.0161570664174221
1.083397396,-0.00517368316650391,-0.00111532211303711,-0.0149191617965698,0.0158301083267116
1.088397396,-0.00402355194091797,-0.0110491514205933,-0.00785136222839356,0.0141391868994616
1.093397396,0.0015411376953125,-0.00868713855743408,-0.00427520275115967,0.00980402163785323
1.098397396,-0.00397491455078125,-0.00574040412902832,-0.00409209728240967,0.00809304920405668
1.103397396,-0.00283050537109375,-0.0025637149810791,0.000194072723388672,0.00382388014743709
1.108397396,-0.00485515594482422,-0.000184297561645508,-0.0257517099380493,0.0262060502474756
1.113397396,-0.006103515625,-0.013136625289917,-0.0188549757003784,0.0237767519996775
1.118397396,-0.0134973526000977,-0.00633060932159424,-0.0207433700561523,0.0255449122699706
